44,210,328,100,75,57,78,107
35,167,346,104,69,48,95,125
33,169,268,96,64,42,95,119
32,162,274,91,60,38,89,119
32,180,293,83,49,40,97,121
31,203,356,99,37,38,99,122
32,210,361,106,38,41,102,88
31,192,351,116,36,39,95,88
30,195,409,122,37,40,97,90
30,170,456,115,38,36,89,92
29,132,415,100,41,34,88,93
28,157,410,92,39,29,61,64
32,176,418,88,41,33,50,63
34,175,371,86,46,33,69,101
36,180,300,100,46,38,76,98
38,189,320,100,45,37,78,103
37,194,313,100,46,38,80,105
35,199,363,98,45,34,80,105
34,203,330,94,41,32,59,64
32,203,305,78,43,33,78,131
33,199,280,76,46,37,85,127
34,179,290,88,48,36,86,128
33,182,256,125,54,38,87,130
32,166,279,122,54,38,90,128
30,199,278,121,52,34,66,64
30,198,339,120,50,28,52,59
30,190,340,108,46,31,56,106
33,165,303,71,41,29,54,108
33,171,314,73,40,27,51,112
31,131,329,74,40,29,50,110
28,154,297,79,38,31,53,110
29,154,329,101,40,34,46,61
34,152,324,95,38,37,46,52
37,170,297,95,39,40,48,51
37,180,310,95,39,39,53,46
40,157,286,100,40,38,52,49
40,159,244,81,40,33,68,45
35,200,246,80,39,32,72,46
34,178,248,81,36,30,77,110
34,162,252,84,38,32,74,113
30,166,267,109,42,32,72,116
30,166,288,108,40,31,55,119
30,146,287,106,45,32,52,119
27,152,294,103,46,34,38,67
30,151,265,107,47,33,43,60
31,143,303,75,44,34,46,53
33,169,296,70,45,34,53,98
34,139,313,80,41,33,53,105
34,129,402,83,39,30,55,103
32,141,399,81,38,31,54,107
34,191,378,84,39,32,53,109
36,173,382,96,41,34,47,70
36,196,419,108,43,33,45,59
37,203,384,113,51,32,44,55
36,198,386,108,49,30,41,66
35,188,361,105,54,27,40,90
31,186,344,107,55,26,39,92
34,172,358,91,53,25,38,96
30,169,310,87,48,24,42,98
31,170,323,101,51,27,41,89
32,157,317,103,47,25,35,69
31,169,301,90,43,24,37,61
27,185,251,91,41,27,38,54
29,179,325,94,40,27,40,48
29,183,306,80,39,29,40,44
29,165,321,77,39,34,41,41
27,156,331,77,38,36,40,41
31,160,302,73,40,35,41,43
31,161,237,61,43,35,40,95
32,159,248,70,44,34,41,97
31,211,250,70,42,31,42,100
31,208,238,68,48,32,40,101
27,194,230,68,44,32,39,101
27,203,210,70,44,32,39,58
28,223,309,70,43,30,39,54
28,168,296,70,46,29,45,49
29,199,303,70,44,25,46,45
29,201,319,87,45,28,46,43
28,192,334,90,44,27,44,101
30,180,256,83,45,26,41,109
29,188,266,81,44,28,33,108
29,157,265,80,43,29,31,109
27,145,245,60,44,29,39,110
28,152,219,64,42,28,37,65
26,131,200,69,41,30,38,52
28,137,198,78,44,33,40,47
29,139,227,84,44,33,41,98
31,142,312,83,45,32,33,100
32,151,309,78,46,34,33,103
32,176,323,73,44,33,34,103
31,175,320,72,38,30,32,103
33,187,321,76,40,28,35,59
32,180,286,87,38,29,43,57
31,171,313,100,38,29,46,50
32,168,315,102,38,27,49,102
33,163,317,97,41,30,49,104
33,140,317,92,38,30,49,107
34,161,279,86,44,29,44,110
35,159,260,70,44,28,45,109
35,206,344,86,49,31,42,66
34,203,345,87,48,27,41,62
32,201,324,82,46,25,42,54
33,222,330,91,42,28,43,44
33,226,383,103,41,32,38,38
30,166,293,88,34,30,39,40
29,170,287,90,35,33,47,40
32,174,356,95,38,36,45,40
30,146,380,91,42,34,41,39
29,139,333,85,42,32,40,48
29,142,331,83,42,31,39,40
32,166,324,82,42,29,31,40
29,167,253,81,43,29,31,39
28,150,203,74,40,29,31,39
30,197,212,74,43,29,29,39
31,194,217,74,42,31,31,38
28,168,235,78,44,30,31,39
29,218,232,76,47,31,39,39
29,225,234,74,47,33,41,39
30,182,187,69,44,32,41,30
31,229,169,74,45,32,42,42
32,228,195,72,43,33,41,40
31,181,219,73,39,31,38,41
33,194,246,74,41,30,44,43
31,202,251,81,41,29,45,43
33,151,292,79,41,31,44,43
31,158,294,77,42,33,49,43
32,172,280,75,44,33,47,42
30,149,263,73,42,34,46,40
31,175,284,76,41,34,48,42
30,175,243,73,40,33,47,31
31,171,207,70,40,32,41,41
32,188,358,86,40,31,40,41
32,191,388,93,45,28,32,41
30,172,379,83,51,29,33,39
28,179,378,89,52,29,42,39
27,177,421,93,51,29,41,30
28,160,318,89,52,29,47,31
30,155,283,88,48,30,52,40
33,204,292,94,43,31,54,40
37,228,330,99,43,29,52,39
39,233,316,96,42,34,60,39
40,219,330,131,46,42,87,38
41,229,521,181,56,45,88,29
41,181,528,215,61,44,91,32
41,146,526,212,60,48,96,86
45,210,534,216,64,48,97,119
43,218,523,201,75,40,77,125
48,246,406,197,85,46,102,129
55,298,459,179,106,73,197,145
160,419,495,245,123,82,340,135
178,445,494,253,137,121,412,146
186,486,538,307,134,131,446,174
196,626,635,356,138,130,503,185
200,661,672,447,141,122,550,213
147,742,735,504,148,123,488,243
175,752,778,530,141,105,591,245
196,752,815,530,152,107,625,239
243,692,734,522,150,123,628,256
252,667,759,573,158,140,607,237
278,610,718,548,148,142,714,286
278,678,701,574,153,147,659,286
282,761,750,647,167,212,645,289
270,770,774,646,171,219,626,273
299,810,726,612,165,217,695,273
301,802,722,586,163,222,690,217
306,725,726,568,154,229,737,211
316,694,696,583,136,321,805,213
298,753,665,580,192,330,1015,267
331,743,670,547,192,335,1067,305
319,803,749,626,199,337,1020,295
330,838,753,639,207,398,1051,305
320,837,741,580,214,310,1023,352
320,767,778,661,181,311,909,339
288,747,756,682,177,299,804,353
321,667,761,636,175,320,869,353
306,681,793,655,172,382,903,362
350,742,857,691,173,394,927,360
369,782,915,682,150,395,916,365
397,917,906,772,158,399,993,342
402,927,909,843,172,429,1073,367
407,898,866,875,179,469,1065,443
387,842,832,839,164,486,1035,474
415,864,842,805,182,482,1112,489
378,787,852,706,165,486,1132,479
368,809,822,635,149,544,1014,505
373,911,886,586,144,498,986,448
411,911,829,578,145,531,1012,405
405,899,775,559,137,530,872,389
438,876,804,565,155,595,819,407
441,830,792,532,158,603,971,402
473,764,720,515,169,558,981,468
424,797,838,515,186,577,1070,462
389,797,818,526,190,598,1100,453
387,806,834,602,184,594,1042,448
401,881,846,625,180,538,946,431
395,855,879,593,166,556,892,357
403,859,785,581,147,564,749,455
430,955,856,716,143,693,913,509
413,1005,846,616,136,664,1051,622
421,917,862,633,177,659,1107,649
413,966,889,663,190,673,1151,651
449,922,954,665,199,609,1170,619
446,838,902,566,190,444,995,621
474,779,951,609,211,420,933,514
429,856,900,598,205,414,806,518
471,819,891,648,204,362,787,516
491,891,831,651,194,358,872,529
507,890,821,612,197,389,886,550
504,865,864,640,188,383,990,540
502,893,922,633,207,388,1071,508
465,936,1001,573,195,378,1006,516
461,911,1046,629,216,402,942,503
453,871,1052,692,253,386,1029,447
417,900,968,673,250,426,952,470
425,857,898,633,212,423,920,451
405,787,765,657,219,429,1028,486
329,761,687,642,210,561,1042,431
349,773,735,577,163,565,971,437
379,737,753,583,165,556,907,491
390,693,791,630,175,636,940,493
374,720,876,659,176,647,864,513
416,735,955,749,164,520,869,569
395,784,973,900,188,672,976,589
379,852,1037,904,181,689,1016,552
399,911,1046,934,178,602,1011,543
437,961,1004,916,170,637,988,537
471,900,916,933,175,657,992,522
453,865,874,782,145,502,1031,525
446,793,760,753,178,532,1024,503
452,764,894,898,191,569,1034,515
418,706,873,892,192,548,1052,483
364,732,941,784,191,562,1071,435
359,691,918,808,219,585,1006,377
363,694,986,923,199,532,987,378
331,646,896,758,175,605,900,523
400,627,875,745,193,667,985,524
382,647,852,728,194,661,968,523
387,618,897,783,173,651,901,524
377,643,886,648,187,644,862,552
388,638,822,657,221,615,909,413
422,699,860,649,206,596,919,440
447,675,800,719,207,619,943,482
457,708,788,665,204,606,956,531
463,644,783,771,203,627,953,506
437,629,853,877,179,569,898,492
369,552,873,929,178,516,808,525
378,555,930,968,166,464,695,577
358,532,969,972,168,444,608,529
366,578,973,910,150,554,582,527
407,672,984,854,157,540,650,573
382,617,925,805,159,534,691,541
352,634,873,793,185,535,653,480
411,612,781,827,197,639,767,580
421,597,786,791,197,531,761,635
405,627,706,765,192,533,729,607
424,655,762,760,201,517,719,572
432,678,814,722,203,508,756,551
396,698,812,662,210,443,649,463
402,766,775,679,210,552,867,427
423,658,781,627,216,559,873,417
417,646,732,749,220,582,798,466
494,663,694,740,207,595,783,514
537,643,758,840,238,554,840,516
552,589,723,940,247,469,624,503
541,649,743,978,244,550,681,509
540,717,832,907,234,520,665,496
466,659,880,889,243,505,670,447
409,693,837,881,200,499,646,439
360,689,832,849,199,464,787,417
356,639,838,839,196,370,712,453
341,591,755,855,201,483,785,464
339,602,702,913,189,474,763,484
335,584,732,838,179,490,760,545
346,585,849,807,172,549,730,558
340,645,832,764,168,551,769,536
353,626,854,731,158,438,686,516
333,676,835,718,181,431,732,557
338,696,894,763,184,409,822,481
328,656,768,732,170,317,719,464
315,609,800,715,159,256,857,473
379,596,873,816,165,244,881,453
413,553,966,818,135,289,895,379
420,542,903,789,130,332,886,464
420,579,893,785,136,465,905,519
422,658,860,821,150,524,768,506
349,734,771,735,143,540,755,531
331,738,662,643,138,559,735,551
328,803,641,585,140,541,624,472
351,769,746,592,142,465,567,405
358,693,841,532,135,437,550,448
351,609,921,483,135,424,574,404
328,568,1017,505,133,410,530,378
343,407,1133,558,138,446,518,443
321,401,1083,529,137,475,605,437
322,406,1141,565,135,461,561,368
329,403,1151,691,140,490,500,502
345,440,1044,716,142,540,669,567
324,473,938,672,137,492,734,526
342,468,990,669,130,447,686,598
387,486,906,642,129,476,733,645
412,473,885,494,151,482,897,591
403,454,1063,433,169,405,823,524
385,422,1084,456,173,474,885,517
362,438,1044,465,176,493,1013,490
301,413,990,513,186,449,1056,481
242,402,927,503,161,409,970,423
233,327,750,475,136,465,963,472
218,336,656,485,127,428,886,495
181,329,646,433,130,392,711,431
146,299,627,370,119,396,590,419
170,318,590,383,121,455,505,415
154,343,577,380,118,395,442,331
148,351,602,284,111,355,320,316
145,318,563,273,107,368,323,337
157,326,497,262,102,440,287,311
135,331,522,222,94,377,263,322
124,314,458,183,104,348,196,321
113,314,381,186,120,342,187,290
112,313,431,184,119,446,274,309
97,302,443,149,109,371,378,302
76,301,405,149,107,361,536,309
94,317,462,176,99,368,553,319
93,291,497,167,73,369,562,341
95,286,495,169,62,274,525,314
91,253,508,173,65,253,448,282
94,232,562,169,64,261,240,261
76,225,527,143,62,296,204,314
95,268,506,143,58,314,176,317
90,302,516,117,57,273,157,294
89,318,501,100,55,291,158,370
84,318,467,103,58,281,142,367
90,312,466,113,57,265,109,336
69,269,473,104,52,248,111,313
64,250,448,110,49,231,116,322
66,229,446,112,48,273,117,235
66,261,467,110,48,297,128,225
63,272,487,92,43,288,139,270
66,278,476,101,45,283,136,273
66,286,484,103,47,281,128,259
65,298,516,141,58,214,108,246
61,272,465,150,63,197,99,253
66,270,439,149,61,219,87,211
63,257,460,155,66,247,88,207
66,242,407,155,66,240,93,226
74,233,330,125,64,243,94,227
79,234,343,114,61,254,93,221
75,262,393,119,64,241,94,179
75,269,392,117,70,208,90,258
72,274,451,111,74,255,79,249
78,332,480,115,69,285,110,328
82,355,489,127,65,268,113,354
80,342,479,123,60,263,116,374
81,337,441,111,48,351,126,338
83,340,469,108,40,340,139,400
77,303,529,103,39,321,127,354
72,282,594,110,36,326,123,326
70,255,602,115,43,310,113,321
66,252,609,142,55,207,100,305
73,252,580,148,59,244,89,234
70,219,579,149,60,246,87,298
72,230,491,136,63,252,100,315
69,259,448,137,62,250,102,297
68,256,515,116,53,261,101,297
62,257,510,111,51,194,97,298
57,298,432,99,53,255,98,232
57,312,495,103,54,249,90,287
66,285,539,111,52,285,90,290
69,300,484,113,49,289,95,302
65,286,492,108,48,282,91,294
73,277,508,112,48,226,82,336
69,245,445,105,44,216,80,280
66,250,413,88,45,161,78,273
64,225,450,88,45,128,73,261
62,224,423,95,45,125,72,246
69,207,428,95,42,126,65,176
75,210,475,109,41,179,61,161
73,221,525,121,41,187,65,174
74,228,477,110,45,191,64,167
78,247,459,110,46,194,65,164
71,244,414,109,43,182,68,150
69,325,456,99,45,130,68,186
68,338,416,83,42,146,61,166
75,341,411,86,39,147,62,167
74,322,432,91,37,159,73,170
67,308,492,87,38,159,74,230
60,227,404,83,41,150,70,203
67,213,352,81,40,124,72,207
60,213,391,89,44,116,70,204
60,264,399,83,51,187,64,242
60,263,382,107,55,187,66,193
67,250,408,103,52,193,65,193
58,228,510,107,54,194,65,193
66,237,569,115,50,201,72,271
69,257,546,112,42,127,69,251
68,328,568,93,39,126,61,250
63,339,570,102,42,130,60,248
64,340,536,117,43,124,59,256
54,352,459,106,43,111,49,183
58,323,457,105,44,100,43,162
63,262,498,102,42,95,47,145
63,251,472,92,39,77,44,160
69,277,480,73,39,93,57,162
79,271,524,72,41,98,62,170
72,247,574,78,42,131,72,168
66,307,495,82,42,152,79,187
70,322,499,89,42,151,80,167
68,344,443,84,44,143,74,149
69,376,426,86,40,148,74,118
69,382,427,81,46,132,72,207
87,393,412,87,46,109,62,192
82,389,400,98,48,112,61,213
81,359,429,102,45,112,59,213
72,327,427,103,46,100,54,211
72,332,392,106,47,85,43,152
60,256,387,109,46,94,44,144
64,244,411,98,45,97,50,174
65,267,394,99,49,99,51,178
72,274,454,126,73,102,60,232
81,267,431,162,123,108,63,219
76,269,433,244,137,96,60,220
75,310,430,257,144,104,57,178
79,312,505,270,144,107,65,178
72,292,423,261,135,107,58,123
72,299,431,246,89,103,56,139
74,314,456,179,74,102,59,143
70,335,481,160,60,86,58,146
65,340,442,137,57,113,51,183
79,339,508,147,55,123,55,177
69,331,518,141,54,126,58,187
69,332,502,137,56,133,59,196
73,284,499,149,56,148,62,215
73,265,457,155,59,126,60,186
53,258,376,150,64,122,58,181
53,251,350,147,64,118,60,175
51,238,372,130,56,115,61,162
48,211,315,121,56,99,58,165
49,182,358,119,52,114,62,167
57,214,378,107,44,106,59,166
64,229,380,107,42,107,55,169
67,232,345,109,41,108,49,167
65,262,356,111,41,98,49,135
65,296,315,108,42,85,53,134
64,325,320,109,42,103,64,166
61,325,342,119,42,103,62,140
60,322,351,117,47,98,62,148
65,321,350,112,45,104,62,150
65,314,336,107,48,99,62,148
68,271,324,103,49,84,60,131
65,297,348,91,51,87,61,146
64,308,345,82,50,111,64,142
64,317,375,126,56,106,62,135
68,310,375,160,56,101,58,129
71,320,390,199,65,105,57,106
80,312,369,210,79,107,87,83
102,372,385,217,77,95,88,119
65,262,356,111,41,98,49,135
65,296,315,108,42,85,53,134
151,354,371,226,81,99,117,149
174,353,441,306,97,114,138,184
176,401,561,325,111,124,163,298
204,409,583,361,109,162,167,366
213,422,584,377,109,213,191,438
208,441,593,386,120,275,261,447
241,516,609,350,113,318,551,515
253,535,521,482,136,313,568,461
273,588,603,533,144,316,597,432
302,591,643,577,171,335,677,407
304,586,659,570,168,306,718,415
322,638,630,582,177,277,615,358
338,698,611,463,152,326,749,381
316,682,535,389,145,321,807,407
321,741,559,312,114,320,769,406
336,804,590,349,117,407,856,412
359,775,629,377,120,502,965,479
351,717,708,410,122,514,901,474
392,774,787,478,139,519,843,490
450,721,836,689,180,589,867,535
452,659,842,713,174,546,844,564
418,650,910,736,178,516,771,536
482,677,862,754,184,553,747,555
479,685,809,774,212,565,885,584
454,668,792,695,183,488,968,605
483,732,902,737,200,672,1004,585
592,695,907,684,186,678,1131,565
660,673,970,683,191,698,1249,596
733,693,958,688,155,697,1179,536
713,715,1015,747,192,739,1188,487
699,702,1086,712,181,574,1181,526
638,746,1037,713,186,609,996,514
590,766,1055,683,181,609,824,520
524,722,1143,608,173,643,918,554
577,685,1108,434,147,655,835,598
591,760,947,373,148,751,889,565
640,758,919,405,149,760,1019,660
632,779,933,494,157,859,1106,653
606,727,862,620,170,826,1025,652
580,773,817,725,172,768,970,588
627,670,801,805,178,705,826,671
584,789,860,914,183,632,787,631
547,763,806,942,178,453,696,631
568,802,888,929,169,592,659,620
574,788,927,869,165,647,700,733
529,819,981,830,165,641,677,643
510,708,987,785,160,673,740,711
525,670,1021,743,166,631,744,726
505,722,999,710,161,587,740,744
554,746,962,730,154,548,793,686
538,740,921,764,164,624,923,793
514,716,927,764,172,645,883,730
479,842,882,731,175,714,900,738
469,760,852,718,181,668,947,712
442,810,944,669,172,673,886,777
413,772,987,594,153,567,787,713
411,800,922,522,143,508,772,676
421,779,1029,562,127,456,823,650
444,788,1027,535,139,518,816,740
395,736,1022,633,152,514,859,651
431,727,971,636,145,556,815,662
478,714,1003,590,135,564,670,656
492,666,927,685,149,572,583,685
459,692,929,670,138,576,752,577
466,690,798,592,144,661,731,546
455,732,803,593,143,650,755,493
473,691,837,634,145,678,777,533
540,673,867,584,160,639,786,469
543,692,898,641,163,596,630,505
554,670,966,666,179,736,752,543
551,717,982,690,184,799,733,570
553,799,932,724,189,763,740,592
481,749,815,649,161,770,717,642
488,726,787,669,154,766,647,705
437,744,748,656,122,526,425,667
491,664,706,657,115,461,474,661
527,568,823,604,121,555,487,623
553,560,822,585,116,595,443,600
581,567,767,648,143,617,496,557
591,589,809,633,139,646,568,601
576,602,851,623,159,651,560,608
551,592,745,645,179,586,544,663
523,592,775,664,186,566,556,617
514,556,823,538,177,590,613,670
577,508,784,518,184,629,706,709
537,531,788,498,171,589,683,747
464,572,772,450,179,572,666,758
449,620,849,481,209,583,647,764
432,627,812,492,218,545,587,721
341,643,845,508,214,473,532,660
387,687,872,544,219,479,626,673
413,752,890,574,189,493,673,601
403,727,779,556,149,489,715,620
380,694,794,655,124,456,767,595
377,730,780,668,123,547,699,572
345,682,764,623,117,581,632,479
332,589,822,579,115,570,672,492
341,641,880,572,116,533,676,475
331,705,820,419,107,558,595,512
326,627,753,410,99,448,596,512
330,608,829,476,102,416,660,478
319,614,853,511,104,431,628,465
406,586,816,502,125,445,717,472
442,558,852,502,135,454,808,555
422,637,877,491,141,488,826,593
400,660,742,415,138,451,751,630
390,663,668,453,145,443,711,628
313,622,698,488,132,514,618,617
283,581,660,488,120,522,589,474
318,572,655,493,111,504,544,488
327,527,635,522,126,621,640,469
346,540,767,572,112,619,661,470
350,551,771,525,115,536,696,489
355,560,768,579,132,478,606,527
368,508,833,601,139,494,652,564
369,513,849,587,134,482,716,580
363,453,670,527,135,474,686,573
345,462,691,551,132,609,664,598
363,481,764,507,119,663,683,577
346,493,742,478,113,643,682,463
361,524,773,522,103,534,523,454
347,561,815,495,105,548,520,522
342,606,858,490,97,397,449,455
338,637,882,646,108,337,451,441
406,603,944,728,114,381,389,450
385,581,939,701,109,387,405,443
412,558,903,707,107,468,481,353
454,545,855,715,111,646,576,407
461,505,846,624,109,686,613,390
465,503,866,597,136,664,619,465
471,489,903,630,143,668,608,457
496,493,967,725,164,608,582,493
483,434,981,721,171,461,513,455
473,430,994,714,175,438,539,468
398,402,944,685,155,517,545,465
409,393,873,681,156,543,532,444
348,422,811,602,142,543,485,406
319,444,812,592,130,546,482,410
305,436,718,540,116,508,378,458
313,476,646,474,114,460,420,403
361,488,744,448,119,437,413,403
376,561,817,460,127,441,442,381
365,535,770,466,139,407,434,410
369,537,767,548,153,399,444,450
374,538,779,620,150,434,350,449
308,540,796,607,137,441,347,500
289,468,722,562,119,423,331,548
325,458,732,636,109,426,408,578
297,428,796,649,105,405,390,492
291,388,847,577,102,342,388,556
303,367,759,581,102,338,383,528
303,348,760,581,115,360,364,492
270,360,770,515,122,355,239,456
292,399,731,503,114,422,269,471
296,387,653,559,118,420,279,419
271,397,659,548,121,386,295,464
272,369,648,558,115,432,295,487
248,351,599,578,116,431,297,502
236,303,589,503,109,369,286,576
209,283,545,425,106,341,290,549
201,306,633,444,104,370,272,483
172,272,653,401,95,272,243,440
170,317,694,300,80,244,223,378
124,339,686,260,75,272,174,291
98,354,686,285,72,261,148,289
75,314,571,229,69,211,108,308
71,315,525,204,80,221,109,327
65,263,453,196,79,223,109,376
62,218,389,198,79,217,102,314
64,247,355,146,75,220,98,289
63,239,344,115,69,221,95,261
57,270,303,107,50,205,81,226
53,307,251,87,47,187,64,113
51,310,244,71,39,120,59,78
46,277,390,84,36,136,55,61
47,267,428,90,36,159,61,47
73,280,492,92,42,287,96,287
82,262,543,94,44,340,105,302
87,288,542,97,46,364,129,345
87,278,569,110,46,368,131,379
89,279,573,109,50,399,141,393
71,274,569,110,44,322,123,293
60,248,526,114,41,274,115,293
57,235,562,121,43,263,98,255
73,227,470,98,46,318,101,248
85,240,483,95,47,284,95,268
86,184,457,104,48,284,96,324
85,186,496,104,48,278,92,313
83,184,583,102,45,255,80,309
70,218,659,113,43,179,74,302
70,214,746,109,40,190,66,331
94,259,749,93,40,310,79,330
94,268,759,91,42,313,84,333
95,274,684,83,40,318,82,328
95,263,635,79,42,406,114,331
91,287,487,103,47,400,113,331
72,251,470,113,50,338,109,272
75,345,446,110,49,333,109,286
78,353,439,111,49,329,112,291
76,363,435,122,51,275,79,262
73,344,479,127,46,272,84,190
85,351,505,133,40,267,81,176
85,251,524,136,38,273,86,236
116,217,502,154,40,275,86,242
140,222,471,159,36,229,94,261
170,227,424,147,34,214,85,253
167,238,486,140,35,178,75,252
166,286,450,138,37,167,64,166
148,288,500,118,36,157,59,146
125,290,505,96,33,96,44,126
90,284,532,96,33,154,52,117
88,273,485,96,34,173,58,193
97,227,465,93,34,174,64,200
96,290,402,96,37,183,65,206
97,260,367,96,37,190,61,191
93,260,325,89,40,154,60,193
106,275,396,83,39,177,72,112
99,297,412,83,40,223,79,100
104,231,435,84,36,223,79,94
111,233,497,90,36,213,77,93
102,251,513,95,36,211,73,84
93,295,581,107,36,200,64,79
105,270,604,108,37,149,56,77
104,267,641,102,36,185,66,109
108,266,596,96,37,209,75,110
115,243,599,95,37,205,73,113
104,161,591,100,38,181,65,105
96,180,622,102,33,180,60,103
98,202,587,102,37,179,62,64
85,209,577,101,38,178,68,99
91,211,609,94,34,193,71,102
96,234,509,72,36,205,80,101
88,212,438,80,40,205,81,102
79,204,473,75,38,171,73,98
85,263,536,83,36,141,57,59
78,273,493,91,40,165,57,55
100,247,450,88,39,156,47,57
106,267,529,101,38,151,43,55
117,267,494,103,35,142,42,82
144,203,443,102,36,141,42,116
152,238,518,106,36,128,42,172
140,255,527,106,33,131,43,174
138,270,445,86,31,133,44,178
128,279,478,88,32,134,43,168
135,283,475,85,31,156,47,146
121,248,402,73,29,139,50,79
121,252,380,76,35,136,51,80
131,224,422,92,37,137,50,76
139,197,477,130,37,140,54,76
102,192,509,131,37,127,51,112
101,206,496,135,37,107,44,107
100,228,519,137,30,96,40,104
103,218,609,131,29,90,40,109
96,225,548,93,29,83,35,106
93,230,513,86,28,65,38,79
93,209,505,78,28,60,38,79
89,193,495,80,29,56,39,72
75,223,354,67,27,52,37,99
75,225,321,66,29,59,38,103
73,262,393,90,29,53,37,102
72,271,431,108,31,61,39,101
74,251,487,112,31,70,39,103
67,303,475,125,33,78,42,69
67,363,487,124,36,74,42,71
65,353,457,109,37,74,47,122
64,354,473,91,37,79,47,128
59,360,416,77,37,83,49,130
63,303,410,55,41,85,50,131
54,216,444,60,35,107,56,130
50,206,425,62,38,233,62,71
53,193,374,62,39,247,66,60
53,188,364,79,41,247,67,52
49,226,416,83,44,249,66,48
56,252,460,80,43,246,61,37
63,229,455,77,41,139,48,103
70,245,478,76,41,140,51,114
75,252,476,57,38,177,53,118
83,223,453,54,33,189,56,123
79,216,372,60,35,196,56,125
76,216,374,66,37,199,57,81
69,198,437,83,35,178,50,71
67,224,434,86,36,142,51,93
62,222,401,85,34,119,48,104
64,212,400,85,33,96,48,107
58,286,438,78,33,82,46,108
55,287,469,78,35,75,45,105
52,249,466,76,33,55,36,84
48,249,485,78,35,70,42,116
44,249,484,73,39,77,44,112
56,205,482,81,41,86,46,116
62,266,378,80,41,90,45,118
72,280,389,83,45,93,46,122
69,278,394,96,48,136,49,72
74,285,387,99,49,153,54,107
78,263,374,110,49,162,54,106
80,245,357,103,48,162,58,106
79,233,373,106,50,161,59,102
81,233,346,93,45,124,53,102
82,222,341,96,43,100,47,113
75,250,406,78,41,141,51,118
78,226,414,76,40,144,48,156
77,226,384,83,38,145,48,170
78,288,391,85,38,141,44,174
74,287,386,80,38,139,45,149
74,268,357,81,40,73,39,160
66,250,443,81,39,76,41,124
59,255,486,70,36,76,41,104
53,184,491,69,37,76,45,103
53,186,490,66,36,92,43,134
55,175,425,64,34,93,45,117
54,227,366,64,35,91,43,118
55,226,303,56,37,93,42,118
57,227,320,54,41,98,40,112
52,253,360,61,45,111,43,105
47,269,351,59,46,126,50,99
44,259,289,55,51,161,66,97
42,268,280,56,50,195,77,95
41,257,224,53,48,312,112,95
40,238,150,53,52,348,122,54
46,246,158,70,61,351,121,49
64,277,222,75,61,342,114,44
75,280,253,80,63,349,114,42
102,297,308,105,71,254,81,41
107,287,327,171,90,194,64,38
138,319,390,200,86,204,61,36
144,278,376,217,94,228,72,32
169,271,368,231,101,202,91,31
213,266,326,227,99,221,145,107
214,290,442,196,80,257,151,269
213,252,392,178,82,241,157,281
218,293,396,174,73,216,291,319
198,302,498,168,72,219,403,348
145,332,524,191,85,205,518,376
156,329,452,203,91,164,551,296
155,343,491,208,91,183,737,316
151,350,536,230,98,180,769,283
189,371,552,277,99,181,731,299
214,357,637,276,98,296,805,250
224,364,702,276,93,332,837,275
239,400,737,311,102,365,787,273
309,473,820,377,105,406,879,279
496,463,800,374,103,551,965,293
606,480,906,401,94,647,1001,380
657,501,977,433,100,672,1117,432
651,494,1106,462,97,680,1112,441
708,466,1038,430,106,725,1016,454
601,493,1081,437,112,703,986,465
536,502,1055,427,124,577,861,417
521,504,1002,432,127,603,775,350
561,516,874,443,140,638,793,334
488,487,953,436,135,707,844,344
481,495,981,440,141,722,1013,375
507,533,1091,486,139,779,1045,431
531,557,1091,491,143,743,971,468
506,513,1079,574,159,743,937,502
483,485,1049,579,162,621,931,512
517,499,1086,728,192,536,817,539
453,463,906,701,196,585,772,551
428,435,927,774,199,591,773,577
485,463,943,729,182,680,911,648
507,482,1069,735,176,694,939,659
477,430,1031,607,152,693,855,647
479,494,1044,718,180,689,849,692
476,539,1028,693,176,725,884,696
426,525,1037,714,188,655,733,613
419,517,937,720,190,697,699,731
410,529,854,707,176,710,653,706
401,465,843,598,154,731,660,618
429,385,844,565,158,702,612,573
420,388,798,511,158,646,579,652
429,386,779,563,167,624,717,589
508,395,895,583,176,613,806,599
559,372,921,606,165,490,837,613
546,379,923,632,164,452,854,633
538,426,954,657,167,515,927,612
547,424,942,631,163,582,920,568
501,405,988,613,166,576,877,539
529,400,1087,630,165,587,898,572
538,401,1079,654,203,612,878,553
559,341,1077,641,191,602,791,530
529,344,1137,607,186,564,698,584
511,395,1005,624,188,583,754,608
460,483,992,685,200,572,708,578
487,508,1019,591,158,579,706,597
486,512,1052,555,153,572,683,571
497,515,1033,604,165,583,621,503
552,479,1109,578,167,620,755,552
532,398,1019,475,155,635,773,558
483,351,1011,587,165,623,768,584
469,384,1049,633,162,654,779,593
529,375,1045,661,151,626,832,701
465,371,1090,675,133,624,655,678
479,378,1098,725,145,641,603,678
478,420,1058,694,136,635,587,684
486,375,962,732,149,624,581,685
458,471,948,682,163,618,432,572
517,495,803,672,166,600,340,539
525,502,838,705,161,660,356,585
523,470,840,652,154,658,526,622
580,473,834,633,177,704,574,657
552,404,863,681,202,741,594,635
579,383,911,679,206,798,672,783
550,394,868,678,210,761,651,791
515,444,979,680,229,784,536,712
447,461,1046,707,230,717,570,692
443,425,954,658,198,659,668,692
345,424,945,662,189,583,659,549
390,381,917,561,186,511,648,535
580,305,776,635,171,609,643,586
594,350,723,587,141,633,570,590
619,363,910,597,159,609,501,633
649,377,903,646,176,664,446,630
705,435,925,646,166,678,444,614
616,510,992,688,169,575,439,583
647,492,992,639,165,532,449,586
645,496,853,625,151,617,450,539
628,463,910,592,179,587,448,555
571,457,872,633,194,626,438,508
568,500,894,553,210,715,451,509
513,478,960,589,210,825,459,464
477,491,954,650,212,834,382,501
470,495,922,654,178,822,326,549
436,458,939,609,175,807,331,560
402,356,846,574,155,726,324,577
412,360,850,577,161,648,303,604
424,331,861,527,159,636,341,594
418,373,806,514,165,663,344,509
437,411,838,529,159,705,348,506
409,403,858,516,154,707,329,482
463,419,788,492,148,752,293,510
449,450,811,461,143,770,356,518
431,464,807,494,146,785,375,487
429,451,853,522,142,740,449,484
482,429,848,535,132,731,452,504
453,405,890,536,137,656,477,470
477,427,938,579,147,752,447,525
509,399,987,616,160,685,443,561
503,394,910,619,179,688,367,586
489,401,936,659,192,693,413,569
503,422,930,769,228,713,381,571
504,396,957,794,233,501,309,527
528,527,978,747,228,490,297,529
538,558,1034,736,209,484,306,540
587,615,1039,720,221,651,299,540
539,641,1095,613,185,675,348,570
541,615,997,547,170,704,404,545
508,486,977,524,168,716,448,545
514,462,946,507,169,720,438,477
505,470,1013,503,146,591,402,499
610,517,943,570,160,557,374,465
594,530,942,581,168,678,317,483
596,562,923,576,161,721,275,513
583,609,939,554,154,730,355,558
575,609,873,634,168,761,393,520
514,566,829,539,147,795,394,488
523,651,874,525,135,722,390,466
504,669,871,574,140,709,373,420
645,698,891,581,143,702,330,469
619,643,897,481,116,641,288,549
583,622,903,530,119,614,281,544
563,643,871,598,143,599,281,529
552,618,875,567,133,586,276,549
332,529,795,559,145,591,232,477
263,583,724,557,145,630,235,436
279,576,775,524,151,602,235,416
360,478,793,442,131,568,230,436
404,441,801,401,124,497,224,401
458,419,883,439,130,530,272,415
449,410,918,455,142,481,348,405
505,476,928,459,140,466,345,514
523,473,1005,479,145,470,346,548
549,501,1103,504,161,482,343,639
550,523,1057,470,138,414,307,647
578,505,1143,455,130,612,341,708
528,426,1064,482,129,626,332,656
464,377,1024,441,123,630,344,633
417,416,930,457,136,639,349,549
366,388,1015,462,139,646,382,536
340,355,936,494,143,484,378,446
379,349,992,465,137,439,419,458
470,380,955,464,134,444,577,486
491,349,1049,485,112,498,657,485
512,369,1028,484,121,492,821,539
510,359,987,453,120,492,822,537
537,400,998,450,125,534,873,513
510,396,1041,492,128,507,810,475
531,380,906,440,126,473,771,506
523,398,977,484,131,551,669,434
516,393,1048,456,123,534,611,414
452,408,1072,467,119,529,522,456
394,412,1049,484,117,544,485,447
375,394,1045,485,116,570,527,449
350,347,1075,463,111,475,444,474
420,357,1013,468,131,490,491,471
482,304,950,431,132,449,631,475
475,309,976,404,141,505,696,524
439,314,938,398,134,442,699,476
448,347,690,367,124,468,671,460
379,355,719,365,120,502,743,510
310,369,833,417,119,517,645,499
384,347,822,402,104,548,689,609
456,369,882,392,103,570,781,659
500,352,968,370,104,589,997,727
510,339,983,351,91,567,1030,745
496,386,918,270,80,555,1041,752
436,383,895,200,86,436,978,657
343,356,870,202,88,394,869,631
260,338,793,205,90,317,629,548
220,319,810,175,72,269,454,508
199,217,763,158,76,257,375,475
176,193,744,177,74,244,323,436
157,246,727,214,73,249,298,394
164,283,732,212,73,331,287,383
156,281,610,212,74,318,244,348
146,289,556,212,71,306,235,337
139,311,429,188,63,315,209,303
138,272,443,120,57,318,196,356
110,257,488,141,51,230,150,420
105,278,531,148,56,247,206,434
96,333,546,148,56,258,233,409
107,316,559,166,58,250,250,459
116,355,612,172,61,233,241,418
128,349,580,148,62,276,232,368
144,342,550,142,56,275,191,331
149,341,557,148,54,263,163,326
154,335,558,127,51,263,139,290
146,300,444,139,49,268,167,299
131,306,466,138,46,210,166,296
100,347,447,133,47,179,185,293
145,320,425,122,48,257,208,367
150,434,445,124,52,262,244,364
157,471,463,89,51,260,328,388
156,475,376,96,51,280,358,376
157,440,405,90,49,321,361,390
112,437,404,92,51,253,358,364
99,400,383,91,56,249,355,361
87,355,404,87,51,244,305,352
85,328,424,70,53,242,277,426
100,364,414,71,53,199,277,471
97,371,439,75,51,236,276,453
102,429,559,102,45,248,262,437
100,422,531,144,52,246,214,414
104,435,554,157,52,259,206,326
87,418,584,159,55,313,170,340
96,415,602,165,55,308,168,359
80,345,504,149,57,298,144,361
80,391,601,123,56,297,144,361
79,383,618,120,62,260,139,357
76,385,580,200,75,226,117,289
72,398,593,202,78,197,95,291
72,343,579,215,77,196,119,303
82,302,462,213,75,204,116,293
79,313,409,247,78,231,117,305
80,341,410,198,75,171,128,256
83,362,317,195,74,254,124,194
78,382,336,192,74,269,127,171
72,372,426,206,75,273,127,168
75,380,404,159,67,265,131,191
79,371,388,163,57,268,118,193
73,342,406,163,54,204,112,196
72,324,407,169,60,186,93,193
62,332,312,144,60,182,90,197
67,356,305,141,59,191,92,144
67,407,305,126,55,238,108,138
65,393,414,212,58,240,117,117
69,385,396,218,53,281,113,82
71,384,411,226,50,285,114,64
67,361,405,227,53,379,132,58
65,253,455,226,57,405,148,152
74,260,386,146,54,416,146,184
75,277,436,119,54,403,152,190
84,317,416,104,54,401,157,197
81,315,451,130,55,307,135,200
81,325,465,143,54,242,109,165
73,336,444,152,58,270,136,137
72,329,398,169,56,241,129,156
67,288,415,172,54,260,125,177
69,261,448,161,53,259,137,188
63,278,407,157,52,264,147,168
69,247,429,152,48,216,130,190
70,301,436,132,45,220,129,184
65,304,470,147,50,213,127,170
62,360,496,169,49,218,127,177
62,371,479,166,47,218,109,176
66,379,446,159,47,234,103,187
62,341,450,185,52,245,117,176
72,361,435,172,50,229,116,201
82,310,324,145,50,217,100,190
87,276,359,150,55,211,109,192
79,259,367,169,55,184,105,170
81,264,387,168,60,197,104,171
71,252,358,172,59,198,113,157
58,252,365,181,57,201,113,151
54,295,323,169,50,226,103,160
62,299,318,147,50,222,93,141
59,305,363,133,45,209,79,152
65,351,367,162,53,255,70,156
68,372,357,148,53,253,71,158
82,353,372,145,56,220,72,145
74,346,368,159,60,224,80,144
73,352,379,153,56,217,77,143
70,295,412,132,52,223,76,125
79,259,432,138,53,264,77,167
63,232,428,148,51,258,77,175
66,244,428,135,44,257,69,179
69,197,336,137,48,252,65,169
69,171,350,147,45,189,62,154
64,222,352,149,45,185,65,168
68,249,338,141,46,206,61,179
66,251,330,144,47,213,74,187
66,278,336,146,46,233,77,188
62,287,266,133,46,239,74,188
54,259,238,120,46,190,72,143
54,240,263,123,45,188,77,160
54,318,297,130,49,207,70,156
51,317,412,134,46,241,76,167
52,331,408,137,44,248,81,166
57,352,419,152,49,246,77,156
70,368,399,154,53,270,80,136
71,323,378,151,51,278,84,128
73,308,250,134,51,238,83,125
75,293,316,120,53,232,80,129
79,271,307,102,47,237,80,137
74,278,335,94,43,194,77,128
72,294,430,134,40,162,73,160
69,303,434,140,45,178,64,145
68,303,413,137,44,173,63,144
64,304,403,133,48,197,62,153
59,321,428,133,48,198,59,215
59,293,341,89,47,182,56,199
59,282,347,85,47,161,59,206
60,288,339,96,45,208,57,204
57,322,329,101,44,185,59,195
50,292,271,103,42,212,57,115
49,284,250,100,42,236,75,101
62,290,328,111,41,246,76,121
60,320,336,97,41,209,80,145
63,296,378,93,38,207,82,147
63,295,375,92,37,174,80,142
75,340,386,86,40,152,65,158
68,366,312,72,41,130,69,151
68,341,275,82,41,157,74,138
64,349,351,95,45,185,74,163
66,341,367,108,48,198,79,177
58,290,365,113,45,193,77,163
60,331,441,124,44,187,68,150
66,360,528,128,44,163,54,141
70,366,459,116,44,116,49,102
66,400,492,107,40,96,44,111
65,416,548,109,42,165,48,133
65,375,491,87,39,175,54,139
59,343,401,74,39,172,58,144
60,319,464,83,37,173,58,157
60,274,429,79,39,169,58,136
58,250,397,68,38,94,51,129
62,217,438,85,37,69,42,117
64,208,538,114,40,87,42,133
57,186,522,110,44,86,39,118
57,181,607,114,48,87,38,117
54,155,595,116,47,85,38,98
43,148,590,112,48,85,37,97
44,198,507,109,59,57,31,94
47,226,504,141,57,54,32,93
49,245,428,148,53,58,31,94
50,252,425,149,54,94,40,94
51,257,423,160,54,99,42,93
47,302,475,162,41,103,43,54
46,304,496,137,39,114,46,87
46,296,521,133,39,163,49,84
53,297,548,138,37,163,45,90
53,296,555,127,38,164,43,90
59,283,551,109,44,165,43,89
58,270,522,115,48,162,39,54
69,272,467,107,48,167,45,96
66,287,519,109,52,245,55,103
66,288,515,103,51,256,59,104
62,249,469,96,50,264,59,107
60,265,490,94,45,267,58,106
48,314,508,98,45,253,53,69
49,329,438,87,41,172,44,54
51,334,411,83,40,151,41,91
49,331,412,84,41,133,40,90
51,308,355,95,43,120,40,92
49,235,352,100,50,71,37,93
49,188,303,148,69,48,33,94
52,197,285,163,78,73,32,58
58,210,267,182,89,72,32,54
53,203,255,171,88,77,34,51
53,209,331,174,88,77,36,90
54,253,360,141,76,74,34,87
51,252,389,133,71,49,33,89
47,322,425,108,55,64,33,91
50,327,466,112,55,60,33,92
50,341,465,110,48,61,32,50
46,328,478,114,47,62,34,47
43,336,456,105,40,64,34,38
45,241,436,120,49,49,33,32
44,262,387,119,50,44,31,30
45,248,309,112,51,39,28,28
46,277,373,105,53,38,25,27
46,266,358,108,53,37,28,26
42,274,353,95,45,36,31,30
40,261,359,113,50,38,30,25
39,272,341,109,48,74,37,26
36,248,185,102,45,88,43,26
39,242,186,95,45,89,43,26
41,257,248,87,46,90,42,23
45,268,253,67,44,90,41,26
55,274,391,78,45,65,37,27
55,267,400,84,48,82,33,28
60,370,466,85,48,89,40,30
58,372,458,91,45,101,45,30
59,387,469,87,47,104,51,28
52,391,378,80,46,105,51,27
50,383,377,73,42,90,52,25
47,272,300,75,40,90,47,22
48,266,351,70,41,75,44,22
41,232,390,75,37,73,39,22
41,198,395,75,38,72,39,24
39,184,437,81,48,58,40,25
33,192,453,84,51,66,44,24
38,207,378,87,54,78,46,23
41,248,397,84,55,78,47,25
40,269,391,80,56,78,47,24
43,278,361,76,49,90,43,25
42,281,337,84,45,85,37,28
40,318,423,81,41,88,36,31
38,301,376,80,38,108,37,31
36,291,386,80,37,114,45,30
39,323,366,82,37,104,46,29
40,317,369,87,39,97,45,28
40,274,270,90,38,100,45,26
44,273,229,88,38,81,45,29
45,279,264,95,34,95,39,30
42,253,266,92,35,101,43,32
41,259,289,74,34,100,42,32
38,252,287,63,33,87,42,31
34,254,302,59,33,89,39,27
35,269,240,62,42,76,36,25
36,248,227,65,45,71,34,26
38,259,245,88,48,81,38,26
41,232,250,98,53,94,39,24
41,206,235,100,53,99,38,25
37,188,250,90,53,92,36,26
37,220,254,92,52,91,35,25
37,256,250,73,49,86,29,27
36,342,280,72,46,69,31,27
38,353,345,74,49,50,33,29
42,371,362,81,49,49,34,30
44,357,367,78,48,45,32,29
40,330,338,81,48,37,33,25
38,242,317,73,45,30,28,25
38,235,251,73,43,29,26,26
36,195,226,67,40,39,27,26
33,186,217,66,42,59,31,27
38,210,210,62,43,69,31,27
44,255,202,57,44,78,35,30
42,248,172,65,41,79,37,27
43,260,154,66,41,78,35,27
45,281,150,69,46,95,32,28
48,310,177,69,44,93,35,29
44,315,174,71,46,91,31,26
46,317,252,80,47,94,33,25
44,303,249,84,49,93,34,27
43,286,263,85,51,64,36,25
39,248,249,84,52,73,36,28
40,222,289,89,52,85,34,29
40,228,228,87,54,83,35,28
41,228,311,85,53,85,36,27
46,248,326,81,46,93,36,30
43,232,335,80,45,123,38,27
41,214,297,74,48,118,40,25
46,241,321,64,43,119,37,27
46,240,276,71,39,119,36,26
48,241,285,76,41,112,33,22
48,236,275,78,46,67,28,24
52,248,297,82,43,89,33,26
48,225,299,85,47,94,35,26
47,236,277,78,49,91,34,25
41,209,241,73,48,92,38,25
40,266,271,72,45,87,38,25
39,265,261,78,47,56,36,25
36,276,267,80,45,88,36,24
34,280,294,93,53,92,37,27
40,291,289,97,54,94,36,29
45,261,429,110,71,96,37,28
53,260,460,123,74,102,46,27
70,315,472,155,80,115,97,30
113,364,500,199,92,120,130,34
136,407,605,209,96,210,152,36
185,469,538,230,94,305,160,123
199,501,592,267,109,314,334,138
217,493,620,258,111,310,467,191
232,516,618,277,115,347,504,210
233,505,713,294,117,335,549,237
268,463,748,321,110,294,604,243
279,457,767,340,105,297,566,269
267,433,756,359,111,317,495,251
308,398,742,368,106,303,531,266
320,461,587,355,108,345,516,328
270,533,520,329,139,345,469,316
258,546,601,391,136,364,452,293
264,566,706,432,148,360,417,317
226,554,755,417,161,431,488,339
275,483,788,471,158,417,500,279
321,498,858,481,163,421,491,282
346,480,764,404,164,436,484,314
416,513,754,364,149,441,561,297
398,579,769,449,153,411,426,267
362,613,797,419,159,404,400,317
456,634,748,439,161,402,447,333
453,661,763,475,164,391,568,330
392,637,707,466,166,413,632,328
475,622,737,425,160,381,706,393
524,640,748,439,158,406,727,435
444,574,796,514,141,399,781,423
475,635,780,581,159,441,724,432
553,670,826,643,172,476,631,521
504,732,834,669,170,504,624,526
480,750,826,676,184,610,881,486
531,839,787,629,178,629,814,508
519,802,834,611,176,656,881,528
480,814,841,576,162,624,882,489
472,781,815,519,156,600,978,491
492,745,963,485,134,491,871,527
419,689,999,449,127,513,910,515
439,704,1022,468,122,442,882,549
411,655,1006,524,162,499,940,544
446,648,1013,562,167,553,860,493
420,694,876,616,170,588,808,464
416,744,897,655,184,593,831,480
392,738,868,587,180,597,848,444
447,786,932,544,169,601,786,443
443,788,986,578,172,575,777,506
471,728,989,540,184,550,723,531
479,633,928,494,175,489,684,544
495,674,917,576,174,508,574,565
443,599,805,543,153,461,573,545
433,534,731,454,138,534,479,514
401,635,672,489,127,553,479,501
383,648,828,544,154,621,465,505
390,585,855,470,154,604,479,510
485,611,912,519,169,604,474,619
538,640,945,517,168,572,568,665
537,644,944,468,172,545,549,654
552,613,860,447,148,499,528,639
559,569,917,489,142,539,539,599
478,617,931,515,129,523,513,556
401,649,866,510,149,478,439,502
422,577,952,513,137,483,455,519
431,570,921,494,136,538,465,553
451,609,813,439,141,498,538,563
483,598,740,384,133,531,682,509
488,526,727,446,119,552,664,498
478,501,712,514,121,519,653,448
489,516,771,519,120,436,637,468
433,517,777,519,107,424,671,489
455,501,771,506,109,408,537,466
441,506,878,510,114,403,529,450
427,521,831,460,123,397,476,468
390,545,810,463,115,406,476,411
377,541,840,492,120,505,538,405
305,518,834,548,131,504,571,426
320,497,755,541,144,513,582,473
303,480,816,560,149,533,626,507
328,450,744,575,157,515,648,500
358,436,723,564,165,438,504,497
359,438,707,512,166,471,547,554
391,518,783,522,147,440,560,539
424,538,696,520,147,521,577,515
426,518,739,516,159,540,546,498
410,484,774,548,165,531,507,486
396,498,786,574,207,471,402,401
366,452,754,594,250,456,379,374
389,458,764,615,250,391,312,363
363,485,740,605,250,421,420,387
372,549,736,612,249,451,644,391
407,516,785,585,229,457,668,388
401,528,750,512,188,512,722,384
338,600,706,493,194,512,707,429
351,647,731,592,204,501,650,424
325,678,736,578,198,479,488,403
376,706,750,582,175,487,537,455
398,695,747,607,181,456,537,523
404,649,802,631,176,389,665,473
425,611,837,612,161,355,692,472
476,675,803,570,162,381,675,484
396,729,852,717,195,448,668,427
406,731,811,757,210,458,668,405
411,717,877,730,201,468,539,428
385,721,866,683,191,468,496,413
309,587,867,791,233,527,563,407
331,498,779,697,224,524,633,434
351,563,756,713,232,492,571,417
347,540,722,747,250,546,608,430
357,537,700,784,265,553,610,460
388,566,746,744,238,498,551,456
373,557,741,755,243,428,517,449
335,469,804,689,216,442,550,443
328,486,802,620,197,380,515,421
337,469,797,574,200,456,536,402
313,482,719,494,185,406,518,424
316,458,763,453,181,408,383,425
284,523,785,470,183,405,305,402
277,536,698,517,185,495,290,458
342,573,756,520,164,466,423,530
413,555,813,556,160,500,444,510
444,599,806,563,149,500,496,580
462,582,774,543,141,486,505,561
466,569,826,497,136,412,552,523
409,571,790,497,154,370,461,495
331,620,795,435,149,365,426,475
309,616,875,441,154,432,432,406
315,615,866,449,155,446,564,485
310,627,809,500,165,477,560,494
308,565,830,497,165,510,572,489
326,506,767,512,177,495,610,526
312,523,662,455,165,498,559,532
263,481,622,466,169,508,432,521
300,463,654,423,158,502,434,499
283,473,574,383,150,483,386,486
256,459,566,368,152,461,310,447
237,409,575,356,149,469,309,394
236,397,618,329,145,483,314,310
168,378,661,304,140,437,212,281
177,413,757,428,125,450,204,241
188,411,820,441,102,452,208,240
193,417,778,446,87,429,235,300
189,446,767,453,85,392,206,302
177,438,760,471,85,475,206,404
163,414,655,362,99,477,201,385
132,383,568,346,110,587,206,406
113,359,563,332,118,542,168,371
106,339,548,291,115,521,140,400
109,335,470,273,117,461,143,338
95,362,459,226,103,410,136,326
96,397,487,258,115,228,117,290
97,395,574,323,137,248,107,317
91,433,535,325,139,288,118,296
83,486,505,313,137,270,102,255
68,462,591,307,132,321,102,256
81,439,580,271,116,328,114,284
82,454,483,204,102,324,118,237
93,422,527,207,99,316,110,238
95,407,537,211,103,357,120,240
100,426,466,209,105,364,121,260
91,455,439,174,97,417,125,255
88,424,405,129,69,445,128,264
77,449,415,102,62,438,132,249
76,417,430,103,47,436,127,243
72,374,410,107,45,444,136,238
73,320,410,108,48,444,128,260
68,333,428,104,58,417,126,256
71,305,369,105,66,454,119,244
75,316,374,90,71,460,119,252
69,318,354,80,72,478,112,243
71,363,516,78,75,515,136,222
72,365,566,84,74,544,137,222
77,326,614,94,69,557,167,279
77,298,602,97,65,535,174,304
85,302,608,96,67,539,173,304
88,289,527,92,63,485,162,296
91,285,508,83,55,465,165,321
93,286,486,77,52,410,143,282
86,315,567,80,55,505,159,263
96,351,604,82,53,461,162,283
91,337,628,93,48,475,170,274
91,383,632,112,53,504,186,263
97,378,670,107,56,560,197,344
99,377,610,124,56,489,190,368
95,351,576,129,56,496,188,356
100,393,501,120,55,528,176,385
113,342,601,113,51,516,166,439
116,355,548,121,48,505,163,384
121,342,558,102,48,488,147,355
118,336,607,111,46,488,144,353
131,297,611,132,46,435,142,346
126,298,480,127,51,432,124,258
184,298,495,124,52,426,104,263
188,297,502,140,51,456,118,266
191,341,430,137,50,432,122,304
185,313,423,120,51,399,117,277
182,300,390,121,47,349,117,294
118,296,395,122,46,400,154,274
135,283,527,113,42,364,147,336
128,210,529,103,41,360,146,321
125,267,538,102,39,357,149,326
122,288,555,107,37,375,151,300
119,280,527,102,34,227,106,298
85,302,347,86,37,184,91,207
81,296,339,80,36,182,79,133
74,274,382,85,39,293,96,103
74,308,454,88,42,281,99,106
75,337,443,90,50,292,106,128
81,324,531,111,50,331,110,134
79,342,567,125,56,341,112,147
87,392,617,135,52,255,93,147
82,378,602,127,50,274,93,140
87,362,608,140,45,271,88,171
93,399,537,131,43,229,98,233
101,433,571,126,38,274,107,246
101,374,476,111,41,288,110,243
106,366,457,112,41,267,104,243
110,361,475,113,40,326,103,327
105,312,513,116,50,398,116,293
102,270,554,119,49,364,108,281
118,275,570,127,52,374,118,302
116,255,533,127,54,402,120,300
148,262,582,127,54,411,137,258
154,259,583,143,48,356,122,261
178,250,568,137,52,362,119,290
168,245,589,130,51,414,113,270
171,272,627,130,50,396,113,276
140,269,604,123,52,365,121,255
131,299,580,108,53,400,135,283
104,365,513,105,47,481,156,261
96,388,478,104,45,434,161,261
84,372,452,101,44,428,162,256
78,399,560,91,53,445,172,194
77,390,574,92,54,440,166,123
67,336,542,93,59,358,151,95
70,325,612,110,65,379,145,83
70,330,640,110,69,387,144,76
69,326,523,114,66,452,126,70
75,372,513,124,65,426,123,106
72,361,532,122,61,415,120,132
78,355,515,113,56,389,120,191
83,364,455,113,50,383,114,202
83,338,432,106,41,234,89,207
71,282,404,83,41,205,74,191
66,275,380,84,43,245,77,183
77,311,319,85,46,265,89,158
75,292,332,88,49,253,92,143
90,351,400,89,51,282,93,137
94,350,435,86,51,294,98,132
110,378,444,93,54,295,107,142
102,329,496,91,55,282,110,96
100,356,517,95,52,295,111,96
90,304,453,97,51,288,124,95
89,305,445,98,48,306,131,96
79,287,548,93,46,284,123,53
75,346,485,85,42,356,133,76
73,334,494,75,42,362,150,76
77,319,503,74,41,359,145,78
78,301,487,71,42,334,134,79
72,367,390,81,44,400,138,77
76,314,418,88,45,333,117,52
78,319,434,90,46,317,93,48
78,320,432,94,45,365,101,45
76,327,441,98,46,387,116,46
67,255,404,86,42,324,104,47
59,260,379,77,38,311,98,41
70,265,347,86,39,327,111,98
64,276,338,81,48,340,128,100
65,311,336,74,45,329,120,102
68,318,356,77,47,318,124,104
68,316,333,84,48,326,128,107
55,285,290,76,45,311,118,62
56,348,287,69,36,222,83,58
53,324,283,78,39,209,78,51
59,329,274,100,38,184,73,84
61,343,249,93,37,169,67,86
62,350,394,114,39,147,62,85
57,296,437,122,39,123,60,86
57,278,420,115,37,145,63,86
46,248,413,98,36,222,64,52
49,233,518,113,41,231,66,44
76,243,434,91,37,235,67,41
97,231,402,90,41,238,67,40
100,230,485,97,41,217,58,37
103,226,489,99,41,187,53,80
102,234,447,87,39,196,50,82
87,206,431,85,40,196,49,84
73,269,419,96,39,192,48,88
69,275,329,95,38,192,49,87
68,298,316,91,37,152,42,48
83,324,272,88,42,131,42,81
100,325,270,92,40,149,44,93
94,308,275,73,39,152,48,94
98,331,268,65,39,148,46,99
97,320,261,66,38,125,48,99
86,289,262,61,31,104,43,74
71,296,309,74,33,58,37,54
71,284,307,76,35,54,34,45
71,246,318,77,36,65,34,33
75,239,340,80,38,65,35,31
72,265,335,81,41,77,37,29
71,252,336,68,41,79,37,28
68,206,350,65,36,79,39,29
63,204,343,72,35,160,56,28
58,232,325,70,33,168,59,28
56,192,281,68,28,177,61,28
69,210,252,77,29,180,62,32
72,256,257,95,30,185,64,69
74,269,295,93,31,116,50,78
74,236,309,91,34,103,47,79
76,234,357,98,36,77,43,81
54,213,339,95,38,74,45,81
52,159,346,81,37,55,40,54
50,136,321,82,36,51,40,41
50,140,337,86,32,48,37,35
49,193,432,88,32,48,37,32
44,201,430,85,29,46,33,29
42,232,415,83,33,47,33,28
63,241,416,82,35,49,34,28
68,241,423,77,36,50,34,32
72,200,311,68,37,47,30,34
72,194,307,66,37,39,30,31
72,158,304,62,32,36,29,30
55,154,367,59,30,32,26,29
59,188,367,65,29,34,28,26
54,180,381,82,30,34,31,23
54,202,411,86,33,39,31,75
53,193,459,96,33,39,31,79
52,185,469,96,35,40,34,82
47,142,447,95,37,38,33,83
47,164,458,107,37,38,31,84
51,138,463,115,35,32,32,49
51,139,435,117,34,30,31,42
53,141,382,116,36,30,29,39
45,133,417,138,38,29,34,37
46,103,406,128,37,33,33,36
41,119,427,125,37,33,35,30
55,122,430,117,37,36,34,29
58,124,452,121,36,36,34,28
59,121,424,103,32,36,27,27
55,113,410,98,32,32,27,26
60,105,350,88,30,29,21,24
51,125,379,93,31,30,25,26
49,126,337,87,29,29,26,28
63,146,357,90,29,29,27,27
63,172,358,92,29,30,27,29
58,166,378,92,29,32,26,30
63,146,320,87,31,30,24,27
59,137,335,89,31,30,24,25
59,124,342,84,30,30,24,24
60,111,318,73,31,30,24,21
60,105,316,74,37,29,26,74
61,110,347,77,36,30,25,79
79,124,327,75,36,31,23,82
71,124,276,68,37,30,24,85
78,119,269,65,37,30,25,86
80,120,238,59,32,30,23,50
75,143,299,94,33,32,28,43
62,153,312,102,32,29,28,37
58,173,319,100,30,30,26,34
48,162,313,105,30,30,26,30
45,166,317,109,31,29,27,28
48,278,273,79,29,26,23,26
40,275,248,67,31,26,22,28
42,292,277,67,32,28,24,26
44,309,276,71,43,27,24,28
49,361,285,108,84,26,24,27
48,333,232,114,97,30,28,30
48,340,235,114,97,32,28,29
45,344,204,114,98,31,28,30
47,355,230,114,94,33,29,27
41,308,222,88,62,33,28,30
35,247,225,80,36,31,23,26
38,237,225,83,33,30,25,25
38,202,264,84,34,30,25,25
37,194,247,74,33,30,23,28
40,233,249,62,30,29,23,26
40,234,271,57,29,27,23,27
38,241,283,82,31,33,24,28
40,238,240,80,27,31,24,29
36,216,294,84,25,29,24,27
34,210,284,85,25,31,23,28
36,230,287,112,30,32,26,29
37,224,308,102,28,24,24,29
37,252,310,108,28,29,25,27
37,245,262,112,30,30,25,27
38,206,314,117,32,30,25,27
38,200,295,100,29,31,25,26
35,212,288,96,30,33,25,25
43,170,321,87,34,30,25,27
45,185,316,84,32,30,25,25
44,207,304,74,30,32,26,27
71,199,314,61,29,31,25,25
75,178,305,66,29,33,27,29
